time (s)	det(V)
745.458028	0.654678	
745.460028	0.652388	
745.462028	0.649883	
745.464027	0.646120	
745.466029	0.641814	
745.468029	0.638048	
745.472028	0.632359	
745.476029	0.623798	
745.478029	0.613735	
745.480028	0.609324	
745.482028	0.601152	
745.484028	0.594130	
745.486030	0.589093	
745.488028	0.580775	
745.492028	0.570470	
745.496029	0.556054	
745.498029	0.537606	
745.500032	0.529292	
745.502032	0.521160	
745.504029	0.510556	
745.506032	0.500764	
745.508031	0.489708	
745.512033	0.477894	
745.516034	0.455688	
745.518034	0.436418	
745.520036	0.425794	
745.522043	0.415897	
745.524040	0.406606	
745.526040	0.399186	
745.528040	0.388878	
745.530041	0.376629	
745.534041	0.365924	
745.536040	0.347749	
745.538041	0.338629	
745.540040	0.328254	
745.542041	0.320135	
745.544043	0.311205	
745.546040	0.302662	
745.548041	0.291517	
745.550041	0.282272	
745.552045	0.274658	
745.556040	0.267385	
745.558041	0.251687	
745.560040	0.246287	
745.562042	0.239791	
745.564040	0.232530	
745.566042	0.225401	
745.568040	0.220043	
745.572039	0.215115	
745.576039	0.201397	
745.578040	0.191797	
745.580041	0.188281	
745.582041	0.183810	
745.584040	0.179600	
745.586040	0.176455	
745.588041	0.173134	
745.590040	0.168890	
745.594047	0.164749	
745.598046	0.159451	
745.600047	0.153519	
745.602048	0.150647	
745.604047	0.147680	
745.606046	0.143515	
745.608046	0.141769	
745.610046	0.138274	
745.614048	0.134738	
745.618049	0.129512	
745.620049	0.125988	
745.622051	0.122220	
745.624050	0.119163	
745.626051	0.117948	
745.628051	0.114164	
745.630051	0.111939	
745.634050	0.106001	
745.638050	0.100729	
745.640050	0.096924	
745.642052	0.095269	
745.644050	0.092968	
745.646050	0.088718	
745.648050	0.085728	
745.650050	0.082319	
745.654050	0.079903	
745.658050	0.074084	
745.660051	0.069887	
745.662051	0.068269	
745.664051	0.065296	
745.666050	0.061280	
745.668052	0.059514	
745.672048	0.056458	
745.676049	0.050023	
745.678051	0.046469	
745.680050	0.046633	
745.682052	0.043180	
745.684051	0.041670	
745.686051	0.040513	
745.688051	0.037528	
745.690051	0.036641	
745.694056	0.034915	
745.698057	0.032289	
745.700059	0.028849	
745.702057	0.029533	
745.704058	0.029806	
745.706057	0.027380	
745.708056	0.027954	
745.710056	0.027460	
745.714057	0.024210	
745.718057	0.022841	
745.720057	0.023636	
745.722060	0.024916	
745.724057	0.023869	
745.726058	0.023483	
745.728058	0.023169	
745.730059	0.022615	
745.734056	0.020167	
745.738058	0.020752	
745.740059	0.021499	
745.742059	0.022923	
745.744058	0.021771	
745.746058	0.021579	
745.748058	0.021840	
745.750059	0.020589	
745.754058	0.020036	
745.758058	0.020434	
745.760059	0.021928	
745.762059	0.021724	
745.764058	0.020681	
745.766059	0.018899	
745.768059	0.020186	
745.772058	0.018716	
745.776057	0.015457	
745.778058	0.016916	
745.780058	0.015124	
745.782059	0.015003	
745.784059	0.013906	
745.786058	0.014515	
745.788059	0.013283	
745.790059	0.012568	
745.794058	0.009987	
745.798058	0.007522	
745.800059	0.006220	
745.802059	0.007893	
745.804058	0.006349	
745.806059	0.005238	
745.808058	0.006096	
745.810060	0.004128	
745.814063	0.001448	
745.818064	-0.000338	
745.820065	0.000568	
745.822067	0.001317	
745.824067	-0.001258	
745.826064	-0.002334	
745.828065	-0.001608	
745.830064	-0.002792	
745.832065	-0.005637	
745.836070	-0.005335	
745.838071	-0.005615	
745.840070	-0.006797	
745.842070	-0.005658	
745.844071	-0.004748	
745.846073	-0.004996	
745.848071	-0.006548	
745.850070	-0.008323	
745.852071	-0.008226	
745.854070	-0.007332	
745.858071	-0.009020	
745.860071	-0.007684	
745.862070	-0.006024	
745.864070	-0.007771	
745.866070	-0.006518	
745.868070	-0.007203	
745.870071	-0.005470	
745.874069	-0.008110	
745.878068	-0.006506	
745.880071	-0.008745	
745.882070	-0.006852	
745.884071	-0.007289	
745.886071	-0.006012	
745.888071	-0.006212	
745.890071	-0.007418	
745.892070	-0.006543	
745.896070	-0.008972	
745.900070	-0.009396	
745.902071	-0.008853	
745.904071	-0.009361	
745.906071	-0.009742	
745.908071	-0.011154	
745.910071	-0.010109	
745.912071	-0.012414	
745.916070	-0.015212	
745.920070	-0.016295	
745.922070	-0.017004	
745.924073	-0.018154	
745.926075	-0.021058	
745.928072	-0.020172	
745.930075	-0.022000	
745.932075	-0.026149	
745.936074	-0.029305	
745.940075	-0.031464	
745.942074	-0.032091	
745.944079	-0.034623	
745.946077	-0.035436	
745.948076	-0.039832	
745.950077	-0.041697	
745.952077	-0.043220	
745.956077	-0.045938	
745.960076	-0.050336	
745.962077	-0.052326	
745.964078	-0.055113	
745.966076	-0.057333	
745.968077	-0.059285	
745.970077	-0.061677	
745.972076	-0.062560	
745.976077	-0.065358	
745.980078	-0.069306	
745.982079	-0.072349	
745.984079	-0.075438	
745.986078	-0.074874	
745.988078	-0.078039	
745.990079	-0.078342	
745.992078	-0.082487	
745.996078	-0.084821	
746.000080	-0.088287	
746.002080	-0.090402	
746.004080	-0.091345	
746.006079	-0.094031	
746.008078	-0.094840	
746.010080	-0.097056	
746.012079	-0.100399	
746.016088	-0.104239	
746.018088	-0.108218	
746.020089	-0.109796	
746.022088	-0.111651	
746.024090	-0.114182	
746.026092	-0.115403	
746.028093	-0.117553	
746.030094	-0.121082	
746.032093	-0.125994	
746.036100	-0.130244	
746.040099	-0.136755	
746.042098	-0.143969	
746.044099	-0.147445	
746.046098	-0.152303	
746.048100	-0.158474	
746.050099	-0.164613	
746.052098	-0.168609	
746.056098	-0.176052	
746.060098	-0.187169	
746.062098	-0.199233	
746.064098	-0.205842	
746.066098	-0.213903	
746.068098	-0.221298	
746.070099	-0.226894	
746.072099	-0.235406	
746.076098	-0.245280	
746.080099	-0.260962	
746.082098	-0.278753	
746.084098	-0.286928	
746.086099	-0.295343	
746.088098	-0.304716	
746.090098	-0.313419	
746.092099	-0.324027	
746.096102	-0.334252	
746.100102	-0.354921	
746.102104	-0.372016	
746.104103	-0.379570	
746.106102	-0.390198	
746.108104	-0.399934	
746.110102	-0.408075	
746.112104	-0.415914	
746.116102	-0.423047	
746.120102	-0.437988	
746.122103	-0.454980	
746.124102	-0.461247	
746.126104	-0.470065	
746.128110	-0.478057	
746.130110	-0.486421	
746.134108	-0.494510	
746.138108	-0.508981	
746.140110	-0.523468	
746.142111	-0.527604	
746.144111	-0.534818	
746.146111	-0.541242	
746.148110	-0.547692	
746.150110	-0.555385	
746.152110	-0.560091	
746.156111	-0.568831	
746.160110	-0.579700	
746.162111	-0.591957	
746.164112	-0.597214	
746.166110	-0.602650	
746.168110	-0.611353	
746.170110	-0.616468	
746.172111	-0.623138	
746.176109	-0.631451	
746.180110	-0.643947	
746.182109	-0.655754	
746.186110	-0.668336	
746.188112	-0.676470	
746.190110	-0.680668	
746.194108	-0.688517	
746.198108	-0.703871	
746.200110	-0.713499	
746.202111	-0.719145	
746.204111	-0.723696	
746.206110	-0.729464	
746.208111	-0.732449	
746.210111	-0.736480	
746.212112	-0.741645	
746.216110	-0.744917	
746.220110	-0.750939	
746.222110	-0.750660	
746.224113	-0.748919	
746.226111	-0.749674	
746.228115	-0.751737	
746.230112	-0.746810	
746.232115	-0.745434	
746.234115	-0.744326	
746.240114	-0.735446	
746.242115	-0.720144	
746.244115	-0.714020	
746.246114	-0.709359	
746.248115	-0.699350	
746.250114	-0.689262	
746.252114	-0.680193	
746.256116	-0.671555	
746.260114	-0.645670	
746.262115	-0.622376	
746.264114	-0.608155	
746.266114	-0.594475	
746.268115	-0.582181	
746.270115	-0.568282	
746.272115	-0.553649	
746.276114	-0.539013	
746.280115	-0.513105	
746.282114	-0.481093	
746.284114	-0.468017	
746.286114	-0.453288	
746.288115	-0.440443	
746.290115	-0.424233	
746.292114	-0.413132	
746.296121	-0.402036	
746.300120	-0.371148	
746.302121	-0.340528	
746.304121	-0.327051	
746.306121	-0.310371	
746.308120	-0.292204	
746.310120	-0.278838	
746.312120	-0.266021	
746.316121	-0.250152	
746.320120	-0.219941	
746.322121	-0.191673	
746.324121	-0.171270	
746.326120	-0.157968	
746.328121	-0.147184	
746.330123	-0.130601	
746.332127	-0.112970	
746.336127	-0.098563	
746.340128	-0.073019	
746.342128	-0.034383	
746.344129	-0.022567	
746.346128	-0.007820	
746.348130	0.012777	
746.350129	0.029348	
746.352129	0.042789	
746.356129	0.056815	
746.358129	0.093110	
746.360129	0.107700	
746.362128	0.124498	
746.364130	0.141774	
746.366130	0.162003	
746.368129	0.175926	
746.370130	0.190135	
746.372128	0.206563	
746.374130	0.224365	
746.378128	0.241198	
746.380128	0.267533	
746.382131	0.286277	
746.384128	0.302231	
746.386129	0.315060	
746.388128	0.327550	
746.390128	0.343778	
746.392128	0.360719	
746.394130	0.369833	
746.398135	0.381162	
746.400135	0.406163	
746.402135	0.415430	
746.404134	0.424030	
746.406136	0.436924	
746.408134	0.452654	
746.410135	0.463583	
746.412134	0.471680	
746.414135	0.482581	
746.418138	0.494957	
746.420139	0.513497	
746.422139	0.525246	
746.424137	0.540404	
746.426138	0.549945	
746.428140	0.555527	
746.430139	0.564813	
746.434138	0.576111	
746.438137	0.592438	
746.440140	0.611450	
746.442140	0.623453	
746.444139	0.630123	
746.446139	0.635295	
746.448139	0.644761	
746.450139	0.655285	
746.452139	0.661611	
746.456139	0.665628	
746.460138	0.684792	
746.462138	0.695178	
746.464138	0.703805	
746.466139	0.711466	
746.468140	0.714230	
746.470139	0.718984	
746.472139	0.724471	
746.476139	0.729343	
746.480138	0.731429	
746.482139	0.739256	
746.484138	0.741654	
746.486138	0.739890	
746.488139	0.740380	
746.490137	0.741648	
746.492138	0.738545	
746.496146	0.734277	
746.500146	0.729318	
746.502146	0.721462	
746.504147	0.715090	
746.506146	0.709972	
746.508147	0.705249	
746.510147	0.696783	
746.512146	0.688328	
746.516148	0.680192	
746.520146	0.662937	
746.522147	0.645737	
746.524146	0.637000	
746.526147	0.626422	
746.528146	0.614017	
746.530147	0.604373	
746.532147	0.593288	
746.536150	0.580887	
746.540148	0.560141	
746.542149	0.540414	
746.544150	0.529637	
746.546149	0.518873	
746.548149	0.508112	
746.550150	0.498669	
746.552149	0.488245	
746.556148	0.478710	
746.560148	0.460279	
746.562150	0.443683	
746.564152	0.436161	
746.566149	0.427249	
746.568148	0.418982	
746.570149	0.414268	
746.572148	0.407175	
746.576148	0.401018	
746.580148	0.388658	
746.582148	0.377217	
746.584148	0.369731	
746.586149	0.364745	
746.588148	0.358215	
746.590150	0.351868	
746.592148	0.344248	
746.596148	0.339076	
746.600149	0.326092	
746.602149	0.316493	
746.604149	0.313438	
746.606149	0.307588	
746.608148	0.301361	
746.610149	0.296960	
746.612148	0.290422	
746.616149	0.283015	
746.618149	0.271224	
746.620148	0.267105	
746.622151	0.261784	
746.624150	0.256796	
746.626148	0.249561	
746.628148	0.243200	
746.630149	0.238388	
746.632151	0.231227	
746.634150	0.224087	
746.638149	0.217798	
746.640149	0.206418	
746.642148	0.202008	
746.644148	0.196485	
746.646149	0.189418	
746.648150	0.181326	
746.650148	0.177174	
746.652148	0.173312	
746.654148	0.166118	
746.658150	0.159671	
746.660151	0.149670	
746.662151	0.145998	
746.664150	0.141983	
746.666151	0.136327	
746.668151	0.132039	
746.670150	0.128751	
746.674148	0.123243	
746.678148	0.112965	
746.680150	0.104723	
746.682151	0.101663	
746.684151	0.099234	
746.686151	0.096411	
746.688151	0.092634	
746.690151	0.091428	
746.694148	0.087177	
746.698149	0.080151	
746.700151	0.075346	
746.702150	0.075263	
746.704150	0.074175	
746.706150	0.072527	
746.708152	0.070377	
746.710151	0.069440	
746.712150	0.065906	
746.714155	0.065024	
746.718154	0.063879	
746.720155	0.063080	
746.722156	0.062275	
746.724155	0.061296	
746.726155	0.062415	
746.728154	0.059773	
746.730155	0.058884	
746.732156	0.056615	
746.734156	0.055832	
746.738157	0.055041	
746.740157	0.052487	
746.742157	0.052301	
746.744158	0.053445	
746.746157	0.053151	
746.748157	0.050181	
746.750157	0.049297	
746.754155	0.049549	
746.758155	0.046279	
746.760157	0.044891	
746.762156	0.045543	
746.764157	0.044125	
746.766156	0.042516	
746.768157	0.041240	
746.770156	0.041490	
746.772157	0.038824	
746.776155	0.036714	
746.780156	0.034548	
746.782158	0.031232	
746.784157	0.031420	
746.786156	0.031497	
746.788156	0.027781	
746.790156	0.025725	
746.792156	0.024895	
746.796161	0.023071	
746.800160	0.018565	
746.802161	0.019355	
746.804160	0.018256	
746.806161	0.016008	
746.808160	0.014232	
746.810161	0.013726	
746.812161	0.012522	
746.816160	0.009628	
746.818160	0.007351	
746.820160	0.006807	
746.822161	0.006614	
746.824161	0.005556	
746.826160	0.007078	
746.828161	0.007751	
746.830161	0.004915	
746.832161	0.004263	
746.834161	0.001927	
746.838160	0.001374	
746.840160	0.000678	
746.842161	0.001507	
746.844160	0.001354	
746.846161	0.002213	
746.848162	0.000251	
746.850160	-0.001163	
746.852161	-0.000739	
746.854160	-0.000961	
746.858165	-0.001623	
746.860166	-0.001590	
746.862167	-0.000193	
746.864167	-0.000118	
746.866167	0.000599	
746.868167	0.000154	
746.870166	0.000119	
746.874166	0.001525	
746.878166	-0.001213	
746.880168	0.000134	
746.882166	-0.001151	
746.884167	-0.000341	
746.886168	-0.000840	
746.888166	-0.000060	
746.890167	-0.000037	
746.894165	-0.001337	
746.898164	-0.002277	
746.900167	-0.005732	
746.902166	-0.005983	
746.904168	-0.003552	
746.906167	-0.006782	
746.908168	-0.007395	
746.910167	-0.007849	
746.912166	-0.009550	
746.916172	-0.011504	
746.918171	-0.015678	
746.920171	-0.014766	
746.922171	-0.018326	
746.924171	-0.018116	
746.926171	-0.016338	
746.928170	-0.019275	
746.930171	-0.019724	
746.932171	-0.021911	
746.936169	-0.024968	
746.940170	-0.028377	
746.942172	-0.030089	
746.944171	-0.031042	
746.946171	-0.033229	
746.948172	-0.034482	
746.950170	-0.036831	
746.952171	-0.039199	
746.956169	-0.040376	
746.960171	-0.044577	
746.962170	-0.046235	
746.964172	-0.047741	
746.966171	-0.049111	
746.968170	-0.050060	
746.970171	-0.051173	
746.972171	-0.053508	
746.976173	-0.056049	
746.980172	-0.058085	
746.982172	-0.059938	
746.984175	-0.060072	
746.986173	-0.058845	
746.988173	-0.062034	
746.990172	-0.061956	
746.992173	-0.063615	
746.996173	-0.066695	
747.000174	-0.068444	
747.002175	-0.069813	
747.004174	-0.069982	
747.006176	-0.071413	
747.008176	-0.074099	
747.010176	-0.075069	
747.012176	-0.077034	
747.014180	-0.079013	
747.020182	-0.083721	
747.022183	-0.083733	
747.024183	-0.086752	
747.026182	-0.089378	
747.028183	-0.090342	
747.030183	-0.091384	
747.032183	-0.095923	
747.036186	-0.100380	
747.040187	-0.103311	
747.042188	-0.109563	
747.044187	-0.112394	
747.046187	-0.115313	
747.048186	-0.120641	
747.050187	-0.126629	
747.052186	-0.130083	
747.054189	-0.133760	
747.058187	-0.140303	
747.060186	-0.150787	
747.062187	-0.154758	
747.064187	-0.159745	
747.066187	-0.165599	
747.068186	-0.171481	
747.070187	-0.175194	
747.072187	-0.182407	
747.074186	-0.190761	
747.076190	-0.195854	
747.080189	-0.201816	
747.082188	-0.216961	
747.084189	-0.220227	
747.086189	-0.226049	
747.088189	-0.233748	
747.090188	-0.240807	
747.092189	-0.246791	
747.094189	-0.253825	
747.098188	-0.262169	
747.100189	-0.278457	
747.102188	-0.283632	
747.104191	-0.290485	
747.106192	-0.296414	
747.108191	-0.303440	
747.110192	-0.310423	
747.112191	-0.316798	
747.114190	-0.324417	
747.118191	-0.334654	
747.122190	-0.348049	
747.124191	-0.359188	
747.126192	-0.365115	
747.128191	-0.373696	
747.130190	-0.379946	
747.132191	-0.387188	
747.134191	-0.393951	
747.138190	-0.399378	
747.142190	-0.412495	
747.144191	-0.422081	
747.146193	-0.426494	
747.148191	-0.434116	
747.150191	-0.441749	
747.152191	-0.446198	
747.154190	-0.454823	
747.158190	-0.463644	
747.162191	-0.476810	
747.164191	-0.492032	
747.166191	-0.499536	
747.168191	-0.508447	
747.170191	-0.517060	
747.172191	-0.523558	
747.174191	-0.532951	
747.178191	-0.543396	
747.182192	-0.560610	
747.184192	-0.576422	
747.186193	-0.586105	
747.188193	-0.594263	
747.190193	-0.605527	
747.192193	-0.615306	
747.194193	-0.625262	
747.198194	-0.635316	
747.202194	-0.654067	
747.204194	-0.669829	
747.206196	-0.679636	
747.208195	-0.689429	
747.210196	-0.696453	
747.212195	-0.703484	
747.214194	-0.711123	
747.218194	-0.719008	
747.220194	-0.731467	
747.222196	-0.738826	
747.224197	-0.740498	
747.226198	-0.744351	
747.228196	-0.747950	
747.230197	-0.750744	
747.232196	-0.753990	
747.234199	-0.754339	
747.238196	-0.755897	
747.242196	-0.755759	
747.244197	-0.752683	
747.246196	-0.750802	
747.248197	-0.746051	
747.250196	-0.742873	
747.252196	-0.739434	
747.254196	-0.736174	
747.258196	-0.731747	
747.262196	-0.718905	
747.264196	-0.701824	
747.266196	-0.692907	
747.268198	-0.683289	
747.270197	-0.676490	
747.272197	-0.665207	
747.274196	-0.654509	
747.278197	-0.644360	
747.280196	-0.624142	
747.282197	-0.610361	
747.284199	-0.596147	
747.286198	-0.585079	
747.288199	-0.572530	
747.290199	-0.558682	
747.292200	-0.545188	
747.294199	-0.533297	
747.298199	-0.522819	
747.302198	-0.495973	
747.304199	-0.469774	
747.306200	-0.454735	
747.308199	-0.439498	
747.310200	-0.428917	
747.312199	-0.419407	
747.314198	-0.406573	
747.318204	-0.393810	
747.322204	-0.367592	
747.324205	-0.338594	
747.326204	-0.323656	
747.328206	-0.312883	
747.330204	-0.300982	
747.332205	-0.283518	
747.334204	-0.269379	
747.338205	-0.259129	
747.340204	-0.229897	
747.342204	-0.215057	
747.344205	-0.203382	
747.346205	-0.188904	
747.348206	-0.174661	
747.350204	-0.160413	
747.352204	-0.148504	
747.354204	-0.135948	
747.356208	-0.124387	
747.360213	-0.106523	
747.362213	-0.084424	
747.364212	-0.067457	
747.366213	-0.051548	
747.368212	-0.037223	
747.370213	-0.026262	
747.372214	-0.009093	
747.374213	0.007315	
747.376212	0.021232	
747.380216	0.031574	
747.382218	0.061884	
747.384217	0.076640	
747.386216	0.090768	
747.388216	0.104905	
747.390217	0.121105	
747.392218	0.135594	
747.396214	0.147150	
747.400214	0.174438	
747.402217	0.203400	
747.404218	0.217351	
747.406216	0.231300	
747.408217	0.250251	
747.410218	0.262778	
747.412217	0.276130	
747.416215	0.292214	
747.418217	0.323215	
747.422217	0.335594	
747.424217	0.373291	
747.426216	0.388293	
747.428216	0.399645	
747.430217	0.414326	
747.432216	0.432361	
747.434216	0.446476	
747.438217	0.460211	
747.440217	0.494720	
747.442216	0.511254	
747.444216	0.527498	
747.446220	0.542848	
747.448220	0.558871	
747.450219	0.573940	
747.452219	0.586929	
747.454219	0.602279	
747.458219	0.614438	
747.462218	0.641346	
747.464218	0.664881	
747.466220	0.678419	
747.468218	0.687660	
747.470219	0.697219	
747.472218	0.708531	
747.474218	0.718879	
747.478219	0.724788	
747.480219	0.737730	
747.482218	0.745536	
747.484218	0.752364	
747.486219	0.756514	
747.488218	0.761203	
747.490218	0.765373	
747.492219	0.768460	
747.494218	0.768452	
747.498224	0.768370	
747.502224	0.770216	
747.504224	0.772564	
747.506225	0.769478	
747.510223	0.766357	
747.512224	0.762335	
747.514225	0.757732	
747.518224	0.751504	
747.520225	0.741279	
747.522224	0.735127	
747.524226	0.730281	
747.526224	0.726462	
747.528224	0.718760	
747.530226	0.710210	
747.532225	0.703870	
747.534225	0.696944	
747.536230	0.688689	
747.540234	0.678790	
747.542233	0.663998	
747.544233	0.657117	
747.546232	0.650583	
747.548232	0.642238	
747.550233	0.633966	
747.552234	0.626684	
747.554233	0.620377	
747.556233	0.611589	
747.560232	0.603350	
747.562232	0.588380	
747.564232	0.581535	
747.566233	0.574185	
747.568233	0.565739	
747.570232	0.559596	
747.572233	0.551966	
747.574232	0.543453	
747.576233	0.536189	
747.578236	0.529432	
747.582236	0.521926	
747.584237	0.503583	
747.586236	0.499384	
747.588237	0.490964	
747.590237	0.483161	
747.592236	0.474007	
747.594237	0.467252	
747.598234	0.460056	
747.602235	0.439737	
747.604237	0.423826	
747.606237	0.416735	
747.608237	0.410423	
747.610236	0.404010	
747.612237	0.396269	
747.614238	0.390012	
747.616237	0.380034	
747.620236	0.368268	
747.624236	0.352538	
747.626238	0.337593	
747.628239	0.328169	
747.630238	0.319824	
747.632241	0.310300	
747.634244	0.300944	
747.636244	0.292452	
747.640245	0.283997	
747.644244	0.266179	
747.646246	0.255116	
747.648244	0.245240	
747.650245	0.236090	
747.652244	0.230166	
747.654245	0.223908	
747.656246	0.216936	
747.660254	0.207700	
747.664254	0.196211	
747.666255	0.183646	
747.668252	0.179116	
747.670253	0.174932	
747.672253	0.169822	
747.674254	0.163787	
747.678251	0.159523	
747.680252	0.150073	
747.684253	0.144236	
747.686252	0.139217	
747.688252	0.135555	
747.690253	0.132229	
747.692252	0.128168	
747.694252	0.126447	
747.696253	0.124509	
747.700253	0.119509	
747.702254	0.113877	
747.704252	0.110620	
