num crossings	time (s)	maj axis (mm)	min axis (mm)	theta (rad )	slope (V/s)
653	1192.343171	50.396862	17.175773	3.685309	10.321340
655	1194.413288	50.422014	17.166784	3.673127	10.655833
657	1196.485561	49.925174	17.057024	3.670659	12.658297
659	1198.575480	49.920048	16.983730	3.687870	12.300438
661	1200.659881	50.050790	16.915404	3.696892	10.950439
663	1202.727869	50.119460	16.897406	3.685092	12.662247
667	1206.885069	49.648226	16.697341	3.688394	10.484676
669	1208.969085	49.620502	16.645881	3.699127	12.671855
671	1211.045784	49.732205	16.630328	3.700635	12.404945
675	1215.193811	49.674692	16.664583	3.696755	12.243389
677	1217.267380	49.736819	16.543024	3.696663	12.145503
679	1219.344280	49.457876	16.462465	3.698718	11.448047
681	1221.419904	49.454390	16.355816	3.701948	12.439282
683	1223.500841	49.522283	16.265802	3.705314	10.563497
687	1227.657056	49.230275	16.207683	3.712960	11.263401
689	1229.738182	49.063981	16.153080	3.713823	11.685575
691	1231.820845	48.865203	16.158559	3.712162	11.067776
693	1233.902794	48.966800	15.974512	3.707214	11.102849
697	1238.052191	49.232983	15.867671	3.716779	11.346667
699	1240.124447	49.221073	15.803729	3.728371	11.008132
701	1242.201856	48.649829	15.718188	3.730035	11.037563
703	1244.287754	48.570764	15.734916	3.724721	11.234777
705	1246.370695	48.673679	15.570482	3.716424	10.659616
707	1248.446243	48.905010	15.514254	3.720543	11.547058
709	1250.516202	48.919503	15.390023	3.732679	11.407234
713	1254.666274	48.598978	15.385830	3.742891	10.979656
715	1256.748445	48.361188	15.353239	3.739482	11.858464
717	1258.830536	48.315466	15.250776	3.736757	10.919129
719	1260.910939	48.181058	15.194106	3.736335	10.767798
721	1262.988138	48.241574	15.062501	3.737101	10.957700
723	1265.068074	48.123127	14.961863	3.739890	11.220474
727	1269.222862	47.966912	14.823209	3.745478	11.016198
729	1271.298812	48.019867	14.837038	3.748423	11.038275
731	1273.374221	48.001189	14.770809	3.749189	10.429316
735	1277.521501	48.131558	14.567401	3.745802	11.301206
737	1279.595540	47.951617	14.412668	3.742778	10.651694
739	1281.676261	47.833142	14.326149	3.747158	11.286762
743	1285.844981	47.552233	14.285738	3.760298	11.005173
745	1287.921949	47.628494	14.204226	3.762551	10.557742
747	1289.994575	47.741951	14.205605	3.760400	10.468944
749	1292.064482	47.719626	14.075629	3.755306	10.615313
753	1296.220749	47.287880	13.821514	3.754377	10.427809
755	1298.303406	47.192689	13.685189	3.759533	10.859549
757	1300.385241	47.201405	13.699355	3.762518	10.437955
761	1304.543536	47.149876	13.629219	3.766559	10.527711
763	1306.621065	46.996857	13.539517	3.765616	9.918804
765	1308.699126	46.929671	13.485068	3.765946	10.328536
767	1310.776781	46.853625	13.377485	3.766031	10.363289
769	1312.854469	46.820777	13.326757	3.765446	10.347807
771	1314.931093	46.806538	13.217427	3.765939	10.243314
773	1317.008096	46.961181	13.104736	3.768169	10.512424
777	1321.155135	46.881091	12.901726	3.774219	10.099792
779	1323.228170	46.846987	12.916842	3.780428	9.849329
781	1325.304185	46.665883	12.866429	3.784401	10.233879
783	1327.385007	46.398208	12.826340	3.784408	10.462741
785	1329.468829	46.296991	12.812045	3.782537	10.385674
787	1331.551278	46.087934	12.673069	3.775035	9.963536
791	1335.705152	46.420978	12.453046	3.777611	10.307690
793	1337.778370	46.324761	12.325725	3.781070	9.936977
795	1339.850903	46.539344	12.289888	3.789051	9.654148
799	1344.001691	46.105762	12.154561	3.790738	9.741799
801	1346.079805	46.004915	12.130975	3.791812	10.007025
803	1348.158102	45.965796	12.080810	3.791988	9.905782
807	1352.312626	45.871957	11.965465	3.791837	9.852171
809	1354.389496	45.927980	11.906716	3.793175	9.535777
811	1356.466625	45.824591	11.802503	3.792334	9.615335
815	1360.623491	45.384244	11.578204	3.789057	9.562792
817	1362.705424	45.224825	11.447505	3.792055	9.724524
819	1364.787653	45.162009	11.526406	3.794352	9.548104
821	1366.869388	45.075468	11.456122	3.798119	9.592326
823	1368.948556	45.075845	11.422336	3.801163	9.270953
825	1371.024514	45.055528	11.390200	3.803313	9.512839
827	1373.097455	45.148086	11.378501	3.804156	9.609495
831	1377.243673	45.178842	11.155126	3.798389	9.398503
833	1379.319125	45.101028	11.090077	3.799269	9.459436
835	1381.397171	45.020301	11.012103	3.799830	9.134769
839	1385.557431	44.636579	10.822310	3.801308	8.872406
841	1387.636924	44.561735	10.739534	3.802289	8.836607
843	1389.715978	44.529843	10.669928	3.804244	9.041882
847	1393.871673	44.389352	10.574371	3.805009	8.876372
849	1395.948641	44.477585	10.515215	3.807200	8.561374
851	1398.025013	44.385176	10.422992	3.807152	9.221974
853	1400.099674	44.325687	10.420588	3.810498	9.087700
855	1402.174421	44.371715	10.408593	3.812265	9.077570
857	1404.249591	44.311355	10.345159	3.815583	8.655539
859	1406.325744	44.288608	10.284642	3.818985	8.434581
861	1408.405181	44.209836	10.269170	3.821089	8.848756
863	1410.485860	44.035559	10.235276	3.822189	8.688584
865	1412.567519	43.792334	10.200863	3.820200	8.741370
867	1414.649504	43.604056	10.171575	3.817249	8.653349
871	1418.808041	43.576187	10.002881	3.812770	8.658265
873	1420.884056	43.582511	9.930817	3.813701	8.419409
875	1422.959636	43.537874	9.844111	3.816194	8.251770
877	1425.033516	43.612442	9.750271	3.818957	8.313775
881	1429.183310	43.525973	9.642954	3.823360	8.498595
883	1431.259814	43.486313	9.675303	3.824082	8.336439
885	1433.336481	43.518072	9.592609	3.825103	7.821676
887	1435.413409	43.424707	9.557118	3.825343	8.355242
889	1437.492531	43.225891	9.426908	3.824955	8.445029
891	1439.570712	43.174745	9.348840	3.826850	8.242691
893	1441.650655	42.964708	9.325979	3.825462	8.324619
897	1445.812395	42.766852	9.254357	3.828476	8.357948
899	1447.892292	42.802640	9.291500	3.834018	8.161796
901	1449.972057	42.645192	9.262429	3.833998	8.137761
903	1452.049476	42.598125	9.210358	3.835767	8.377758
905	1454.124623	42.668319	9.251252	3.838299	8.333407
907	1456.199248	42.778200	9.239994	3.841120	8.141932
911	1460.345855	42.886707	9.130789	3.839345	7.900758
913	1462.421093	42.797576	9.023176	3.837826	7.995689
917	1466.575207	42.739359	8.920174	3.838564	7.789303
919	1468.653658	42.504836	8.847447	3.837522	7.810349
923	1472.809208	42.443627	8.770163	3.840430	7.705501
925	1474.888198	42.196495	8.706380	3.840473	7.882337
927	1476.965761	42.205390	8.650794	3.842056	7.979075
931	1481.119203	42.188780	8.665816	3.845477	7.613476
933	1483.195867	42.272954	8.604048	3.848455	7.603966
935	1485.272684	42.146877	8.554642	3.849716	7.759461
937	1487.350860	42.136314	8.542041	3.852700	7.670216
939	1489.428861	42.068417	8.559528	3.854840	7.623544
943	1493.588960	42.230738	8.615899	3.859656	7.919636
945	1495.670462	41.608733	8.508075	3.855290	7.470954
949	1499.831709	41.337139	8.450067	3.850026	7.643932
951	1501.910215	41.399113	8.390147	3.849653	7.471141
953	1503.988279	41.396454	8.308872	3.849450	7.449133
957	1508.141538	41.374102	8.196978	3.851532	7.342407
959	1510.217064	41.343989	8.142567	3.853404	7.542015
961	1512.292389	41.257762	8.118208	3.854995	7.321167
965	1516.445956	41.080495	8.054438	3.856254	7.503355
967	1518.523541	41.082845	7.949114	3.857161	7.335278
969	1520.598668	41.194708	7.946317	3.861901	7.103051
973	1524.754313	40.928102	7.910355	3.863899	6.935098
975	1526.833842	40.825504	7.854163	3.863809	7.401788
977	1528.912966	40.871588	7.893173	3.866649	7.135075
981	1533.069902	40.690077	7.923296	3.870811	7.149940
983	1535.147346	40.656432	7.860029	3.871858	7.299931
985	1537.222583	40.732056	7.886636	3.874251	7.000195
987	1539.298580	40.883074	7.937951	3.877138	7.218584
991	1543.446582	40.959681	7.812053	3.879022	7.011278
993	1545.521222	40.945988	7.725185	3.877620	7.192159
995	1547.596192	40.970533	7.660671	3.877444	7.022310
997	1549.672603	40.918181	7.662195	3.878895	6.884074
999	1551.748522	40.776101	7.616959	3.877902	7.177307
1001	1553.826858	40.849679	7.572737	3.880368	7.176488
1003	1555.905125	40.537855	7.520254	3.880550	6.852735
1005	1557.981667	40.612008	7.544952	3.880303	7.131238
1007	1560.059199	40.559545	7.508203	3.881354	6.889214
1009	1562.137132	40.535526	7.510190	3.883733	7.095943
1011	1564.214308	40.520130	7.492064	3.885705	6.903191
1013	1566.292070	40.454267	7.435056	3.886794	6.823722
1015	1568.369178	40.409899	7.418257	3.888475	6.701914
1017	1570.447457	40.383476	7.381111	3.890193	6.751061
1019	1572.527238	40.332435	7.378684	3.891774	7.164718
1021	1574.606086	40.208333	7.384630	3.892612	6.904307
1023	1576.686554	40.074599	7.320244	3.892567	6.975430
1025	1578.765890	39.922032	7.388185	3.891903	6.927927
1027	1580.847679	39.886171	7.384772	3.891862	6.915318
1029	1582.926933	39.985072	7.422648	3.892081	6.774900
1033	1587.084754	39.449260	7.264055	3.885239	6.712015
1035	1589.162040	39.438573	7.217027	3.885577	6.716069
1037	1591.239523	39.452803	7.186989	3.885638	7.051496
1041	1595.392871	39.398088	7.087039	3.888484	6.545393
1043	1597.469030	39.467828	7.031982	3.890520	6.596076
1045	1599.546120	39.461771	7.014303	3.891177	6.253577
1049	1603.699940	39.244368	6.986210	3.892877	6.532956
1051	1605.778231	39.206570	6.978311	3.894805	6.623020
1053	1607.857688	39.100009	6.936079	3.895446	6.542491
1057	1612.013865	39.081575	6.944907	3.898098	6.662570
1059	1614.093455	38.985852	7.041002	3.901128	6.522787
1061	1616.170208	38.950759	6.988664	3.900213	6.469809
1063	1618.247548	38.916774	6.942175	3.902489	6.392642
1065	1620.323384	38.926840	6.956673	3.904725	6.482546
1067	1622.399157	38.997862	6.930184	3.906815	6.495590
1071	1626.549663	39.114326	6.852213	3.909245	6.649908
1073	1628.624479	39.147809	6.839012	3.910328	6.560579
1075	1630.700073	39.171121	6.840526	3.911396	6.403482
1077	1632.775250	39.168064	6.825969	3.911679	6.156886
1081	1636.928877	39.084373	6.750731	3.912542	6.901900
1083	1639.004628	39.163010	6.734438	3.914689	6.442599
1085	1641.081320	38.990212	6.697085	3.914002	6.406470
1089	1645.237764	38.863914	6.647771	3.916446	6.289797
1091	1647.315299	38.838898	6.618239	3.917186	6.376051
1093	1649.392242	38.770464	6.636339	3.918953	6.377011
1095	1651.470901	38.737935	6.619588	3.920069	6.213285
1099	1655.627960	38.599897	6.563427	3.921073	6.331805
1101	1657.708851	38.473966	6.537215	3.921435	6.485506
1103	1659.787614	38.568627	6.643537	3.923606	6.229522
1105	1661.867938	38.203607	6.529703	3.920309	6.406719
1107	1663.947593	38.109539	6.570541	3.919936	6.068135
1109	1666.027512	37.971584	6.513657	3.917752	6.305761
1111	1668.106389	37.876996	6.509419	3.916827	5.959359
1113	1670.184417	37.784648	6.486238	3.915598	6.106581
1115	1672.263234	37.710509	6.456574	3.915236	5.966886
1117	1674.341158	37.704240	6.427682	3.915235	6.147158
1121	1678.494920	37.599572	6.350653	3.916824	5.912841
1123	1680.571931	37.595058	6.336119	3.918013	5.729199
1125	1682.649032	37.556981	6.300030	3.918839	6.071752
1129	1686.804357	37.433188	6.252588	3.920537	5.609792
1131	1688.881250	37.524150	6.273336	3.922708	6.008991
1133	1690.958866	37.332892	6.274344	3.921799	5.964003
1137	1695.115633	37.282106	6.230401	3.924459	5.853161
1139	1697.193345	37.222071	6.239786	3.925815	5.552206
1141	1699.270072	37.324179	6.255432	3.928300	5.817381
1145	1703.423832	37.260806	6.213228	3.930338	5.823434
1147	1705.501831	37.357544	6.320485	3.933022	5.854650
1149	1707.576139	37.313679	6.253490	3.933921	5.630852
1153	1711.726250	37.410741	6.111169	3.936012	5.821463
1155	1713.801835	37.399975	6.179406	3.937199	5.886747
1157	1715.877658	37.433869	6.124887	3.937970	5.957445
1161	1720.030271	37.406173	6.078462	3.939637	5.775739
1163	1722.107499	37.322803	6.068971	3.939987	5.715196
1165	1724.184577	37.284019	6.041964	3.940713	5.706388
1169	1728.338805	37.182174	6.013886	3.942039	5.662952
1171	1730.416062	37.144451	6.005693	3.943010	5.689988
1173	1732.494753	37.119054	5.979639	3.944072	5.545190
1177	1736.653121	36.904447	5.965158	3.942999	5.716515
1179	1738.732029	36.916165	5.936641	3.946674	5.634873
1181	1740.809969	36.767281	5.897154	3.944528	5.665405
1183	1742.889340	36.690503	5.881969	3.944290	5.562002
1185	1744.968895	36.552951	5.958045	3.943848	5.687536
1187	1747.047585	36.448178	5.890502	3.942692	5.400941
1189	1749.128497	36.341620	5.907002	3.941448	5.509026
1191	1751.206594	36.242139	5.873841	3.940237	5.452212
1193	1753.286546	36.163633	5.867245	3.939134	5.516736
1195	1755.364116	36.088553	5.834595	3.938880	5.333194
1197	1757.441396	36.044427	5.824055	3.938611	5.448302
1199	1759.519037	35.981862	5.792907	3.939019	5.518076
1203	1763.674832	35.927923	5.758132	3.939967	5.167450
1205	1765.751938	35.909304	5.756523	3.941385	5.412638
1207	1767.828898	35.853469	5.717337	3.942067	5.677741
1211	1771.984362	35.878642	5.689765	3.944607	5.367380
1213	1774.062289	35.666516	5.668492	3.943054	5.317144
1215	1776.140246	35.636720	5.680809	3.944786	5.173890
1219	1780.294193	35.581725	5.669841	3.947464	5.366444
1221	1782.372773	35.532010	5.675963	3.948314	5.207388
